#[beg	end)	count	density
1	2	1	1.000000
2	3	1	1.000000
3	4	1	1.000000
4	5	1	1.000000
5	6	1	1.000000
6	7	1	1.000000
7	8	1	1.000000
8	9	1	1.000000
9	10	1	1.000000
10	20	10	1.000000
20	30	10	1.000000
30	40	10	1.000000
40	50	10	1.000000
50	60	1	0.100000
